x	 y	 z	 vx	 vy	 vz	 [v]
1.081273	 0.465119	 0.299600	 0.001313	 0.000617	 -0.004361	 0.017441
-0.648340	 0.680823	 0.295239	 -0.013238	 -0.010446	 -0.004453	 0.017441
-0.661578	 0.670376	 0.290786	 -0.013037	 -0.010657	 -0.004545	 0.017441
-0.674615	 0.659720	 0.286241	 -0.012833	 -0.010864	 -0.004635	 0.017441
-0.687448	 0.648856	 0.281606	 -0.012625	 -0.011067	 -0.004723	 0.017441
-0.700073	 0.637788	 0.276883	 -0.012413	 -0.011268	 -0.004810	 0.017440
-0.712485	 0.626521	 0.272074	 -0.012197	 -0.011464	 -0.004895	 0.017440
-0.724683	 0.615057	 0.267178	 -0.011978	 -0.011657	 -0.004979	 0.017440
-0.736660	 0.603400	 0.262200	 -0.011755	 -0.011846	 -0.005061	 0.017439
-0.748415	 0.591554	 0.257139	 -0.011529	 -0.012031	 -0.005141	 0.017438
-0.759944	 0.579523	 0.251997	 -0.011299	 -0.012213	 -0.005220	 0.017438
-0.771243	 0.567310	 0.246777	 -0.011066	 -0.012390	 -0.005298	 0.017437
-0.782309	 0.554920	 0.241479	 -0.010830	 -0.012564	 -0.005373	 0.017436
-0.793140	 0.542356	 0.236106	 -0.010591	 -0.012734	 -0.005447	 0.017435
-0.803730	 0.529622	 0.230659	 -0.010349	 -0.012899	 -0.005519	 0.017434
-0.814079	 0.516722	 0.225140	 -0.010103	 -0.013061	 -0.005590	 0.017433
-0.824182	 0.503661	 0.219550	 -0.009855	 -0.013219	 -0.005658	 0.017432
-0.834037	 0.490443	 0.213892	 -0.009604	 -0.013372	 -0.005725	 0.017431
-0.843641	 0.477071	 0.208167	 -0.009350	 -0.013521	 -0.005790	 0.017429
-0.852992	 0.463549	 0.202377	 -0.009094	 -0.013666	 -0.005853	 0.017428
-0.862086	 0.449883	 0.196524	 -0.008835	 -0.013807	 -0.005915	 0.017426
-0.870921	 0.436077	 0.190609	 -0.008574	 -0.013943	 -0.005974	 0.017425
-0.879495	 0.422134	 0.184635	 -0.008310	 -0.014075	 -0.006032	 0.017423
-0.887806	 0.408059	 0.178603	 -0.008045	 -0.014203	 -0.006088	 0.017421
-0.895850	 0.393856	 0.172515	 -0.007776	 -0.014326	 -0.006142	 0.017419
-0.903627	 0.379530	 0.166373	 -0.007506	 -0.014445	 -0.006194	 0.017417
-0.911133	 0.365085	 0.160179	 -0.007234	 -0.014559	 -0.006244	 0.017415
-0.918367	 0.350526	 0.153935	 -0.006960	 -0.014669	 -0.006292	 0.017413
-0.925327	 0.335857	 0.147643	 -0.006684	 -0.014774	 -0.006338	 0.017411
-0.932011	 0.321083	 0.141305	 -0.006406	 -0.014875	 -0.006383	 0.017408
-0.938418	 0.306208	 0.134922	 -0.006127	 -0.014971	 -0.006425	 0.017406
-0.944545	 0.291237	 0.128497	 -0.005846	 -0.015063	 -0.006465	 0.017403
-0.950391	 0.276174	 0.122032	 -0.005564	 -0.015150	 -0.006504	 0.017400
-0.955956	 0.261024	 0.115528	 -0.005281	 -0.015232	 -0.006540	 0.017398
-0.961236	 0.245792	 0.108988	 -0.004996	 -0.015310	 -0.006575	 0.017395
-0.966232	 0.230482	 0.102414	 -0.004710	 -0.015383	 -0.006607	 0.017392
-0.970941	 0.215099	 0.095807	 -0.004422	 -0.015452	 -0.006637	 0.017389
-0.975364	 0.199647	 0.089169	 -0.004134	 -0.015515	 -0.006666	 0.017386
-0.979498	 0.184132	 0.082503	 -0.003845	 -0.015575	 -0.006692	 0.017382
-0.983343	 0.168557	 0.075811	 -0.003556	 -0.015629	 -0.006717	 0.017379
-0.986899	 0.152928	 0.069094	 -0.003265	 -0.015679	 -0.006739	 0.017375
-0.990164	 0.137249	 0.062355	 -0.002974	 -0.015724	 -0.006759	 0.017372
-0.993138	 0.121525	 0.055596	 -0.002682	 -0.015764	 -0.006778	 0.017368
-0.995820	 0.105761	 0.048818	 -0.002390	 -0.015800	 -0.006794	 0.017364
-0.998211	 0.089961	 0.042024	 -0.002098	 -0.015831	 -0.006809	 0.017360
-1.000309	 0.074130	 0.035215	 -0.001805	 -0.015858	 -0.006821	 0.017356
-1.002114	 0.058272	 0.028394	 -0.001512	 -0.015879	 -0.006831	 0.017352
-1.003626	 0.042393	 0.021563	 -0.001220	 -0.015896	 -0.006839	 0.017348
-1.004846	 0.026496	 0.014724	 -0.000927	 -0.015909	 -0.006846	 0.017344
-1.005773	 0.010588	 0.007878	 -0.000634	 -0.015916	 -0.006850	 0.017339
-1.006407	 -0.005329	 0.001028	 -0.000342	 -0.015919	 -0.006852	 0.017335
-1.006748	 -0.021248	 -0.005824	 -0.000050	 -0.015918	 -0.006853	 0.017330
-1.006798	 -0.037166	 -0.012677	 0.000242	 -0.015912	 -0.006851	 0.017326
-1.006556	 -0.053078	 -0.019528	 0.000533	 -0.015901	 -0.006847	 0.017321
-1.006022	 -0.068979	 -0.026375	 0.000824	 -0.015886	 -0.006842	 0.017316
-1.005198	 -0.084865	 -0.033217	 0.001114	 -0.015866	 -0.006834	 0.017311
-1.004084	 -0.100730	 -0.040051	 0.001404	 -0.015841	 -0.006824	 0.017306
-1.002680	 -0.116572	 -0.046875	 0.001692	 -0.015812	 -0.006813	 0.017301
-1.000988	 -0.132384	 -0.053688	 0.001980	 -0.015779	 -0.006800	 0.017295
-0.999009	 -0.148163	 -0.060488	 0.002266	 -0.015741	 -0.006784	 0.017290
-0.996743	 -0.163904	 -0.067272	 0.002551	 -0.015699	 -0.006767	 0.017284
-0.994191	 -0.179603	 -0.074039	 0.002836	 -0.015652	 -0.006748	 0.017279
-0.991356	 -0.195255	 -0.080786	 0.003119	 -0.015601	 -0.006727	 0.017273
-0.988237	 -0.210856	 -0.087513	 0.003400	 -0.015545	 -0.006704	 0.017267
-0.984836	 -0.226401	 -0.094216	 0.003681	 -0.015486	 -0.006679	 0.017261
-0.981156	 -0.241887	 -0.100895	 0.003960	 -0.015422	 -0.006652	 0.017256
-0.977196	 -0.257309	 -0.107547	 0.004237	 -0.015353	 -0.006624	 0.017249
-0.972959	 -0.272662	 -0.114171	 0.004512	 -0.015281	 -0.006593	 0.017243
-0.968447	 -0.287942	 -0.120764	 0.004786	 -0.015204	 -0.006561	 0.017237
-0.963661	 -0.303146	 -0.127326	 0.005058	 -0.015123	 -0.006527	 0.017231
-0.958603	 -0.318269	 -0.133853	 0.005328	 -0.015038	 -0.006492	 0.017224
-0.953274	 -0.333307	 -0.140344	 0.005596	 -0.014949	 -0.006454	 0.017218
-0.947678	 -0.348256	 -0.146799	 0.005863	 -0.014856	 -0.006415	 0.017211
-0.941815	 -0.363112	 -0.153213	 0.006127	 -0.014759	 -0.006374	 0.017204
-0.935689	 -0.377871	 -0.159588	 0.006389	 -0.014658	 -0.006331	 0.017198
-0.929300	 -0.392529	 -0.165919	 0.006648	 -0.014553	 -0.006287	 0.017191
-0.922652	 -0.407082	 -0.172206	 0.006906	 -0.014444	 -0.006241	 0.017184
-0.915746	 -0.421527	 -0.178447	 0.007161	 -0.014332	 -0.006194	 0.017177
-0.908586	 -0.435859	 -0.184641	 0.007413	 -0.014216	 -0.006144	 0.017169
-0.901173	 -0.450074	 -0.190785	 0.007663	 -0.014096	 -0.006094	 0.017162
-0.893510	 -0.464170	 -0.196879	 0.007911	 -0.013972	 -0.006041	 0.017155
-0.885599	 -0.478142	 -0.202920	 0.008155	 -0.013845	 -0.005987	 0.017148
-0.877443	 -0.491987	 -0.208907	 0.008398	 -0.013714	 -0.005932	 0.017140
-0.869046	 -0.505701	 -0.214839	 0.008637	 -0.013580	 -0.005875	 0.017133
-0.860409	 -0.519281	 -0.220714	 0.008874	 -0.013442	 -0.005816	 0.017125
-0.851535	 -0.532723	 -0.226530	 0.009107	 -0.013301	 -0.005756	 0.017117
-0.842428	 -0.546024	 -0.232286	 0.009338	 -0.013157	 -0.005695	 0.017109
-0.833090	 -0.559181	 -0.237981	 0.009566	 -0.013009	 -0.005632	 0.017102
-0.823523	 -0.572190	 -0.243613	 0.009791	 -0.012858	 -0.005568	 0.017094
-0.813733	 -0.585048	 -0.249181	 0.010013	 -0.012704	 -0.005502	 0.017086
-0.803720	 -0.597752	 -0.254683	 0.010231	 -0.012547	 -0.005435	 0.017078
-0.793489	 -0.610299	 -0.260119	 0.010447	 -0.012387	 -0.005367	 0.017070
-0.783042	 -0.622686	 -0.265486	 0.010659	 -0.012223	 -0.005297	 0.017061
-0.772383	 -0.634909	 -0.270783	 0.010868	 -0.012057	 -0.005227	 0.017053
-0.761515	 -0.646967	 -0.276010	 0.011074	 -0.011888	 -0.005155	 0.017045
-0.750442	 -0.658855	 -0.281164	 0.011276	 -0.011716	 -0.005081	 0.017036
-0.739166	 -0.670571	 -0.286246	 0.011475	 -0.011542	 -0.005007	 0.017028
-0.727691	 -0.682113	 -0.291252	 0.011670	 -0.011364	 -0.004931	 0.017019
-0.716021	 -0.693478	 -0.296183	 0.011862	 -0.011185	 -0.004854	 0.017011
-0.704159	 -0.704662	 -0.301037	 0.012051	 -0.011002	 -0.004776	 0.017002
-0.692109	 -0.715664	 -0.305814	 0.012235	 -0.010817	 -0.004697	 0.016993
-0.679873	 -0.726481	 -0.310511	 0.012417	 -0.010630	 -0.004617	 0.016985
-0.667456	 -0.737111	 -0.315128	 0.012594	 -0.010440	 -0.004536	 0.016976
-0.654862	 -0.747550	 -0.319664	 0.012768	 -0.010248	 -0.004454	 0.016967
-0.642094	 -0.757798	 -0.324118	 0.012939	 -0.010053	 -0.004371	 0.016958
-0.629155	 -0.767851	 -0.328488	 0.013105	 -0.009857	 -0.004287	 0.016949
-0.616050	 -0.777708	 -0.332775	 0.013268	 -0.009658	 -0.004202	 0.016940
-0.602782	 -0.787365	 -0.336976	 0.013427	 -0.009457	 -0.004116	 0.016931
-0.589355	 -0.796822	 -0.341092	 0.013582	 -0.009254	 -0.004029	 0.016922
-0.575772	 -0.806076	 -0.345121	 0.013734	 -0.009049	 -0.003941	 0.016913
-0.562038	 -0.815126	 -0.349062	 0.013882	 -0.008843	 -0.003853	 0.016904
-0.548157	 -0.823968	 -0.352915	 0.014025	 -0.008634	 -0.003763	 0.016894
-0.534131	 -0.832603	 -0.356678	 0.014165	 -0.008424	 -0.003673	 0.016885
-0.519966	 -0.841027	 -0.360351	 0.014301	 -0.008212	 -0.003583	 0.016876
-0.505665	 -0.849239	 -0.363934	 0.014433	 -0.007999	 -0.003491	 0.016867
-0.491232	 -0.857237	 -0.367425	 0.014561	 -0.007783	 -0.003399	 0.016857
-0.476671	 -0.865021	 -0.370824	 0.014685	 -0.007567	 -0.003306	 0.016848
-0.461986	 -0.872588	 -0.374130	 0.014805	 -0.007349	 -0.003213	 0.016838
-0.447180	 -0.879937	 -0.377343	 0.014922	 -0.007130	 -0.003119	 0.016829
-0.432259	 -0.887066	 -0.380461	 0.015034	 -0.006909	 -0.003024	 0.016819
-0.417225	 -0.893975	 -0.383485	 0.015142	 -0.006687	 -0.002929	 0.016810
-0.402083	 -0.900662	 -0.386414	 0.015246	 -0.006464	 -0.002833	 0.016800
-0.386837	 -0.907126	 -0.389247	 0.015346	 -0.006240	 -0.002737	 0.016791
-0.371491	 -0.913365	 -0.391984	 0.015442	 -0.006014	 -0.002640	 0.016781
-0.356049	 -0.919380	 -0.394624	 0.015534	 -0.005788	 -0.002543	 0.016771
-0.340515	 -0.925168	 -0.397167	 0.015622	 -0.005561	 -0.002446	 0.016762
-0.324893	 -0.930729	 -0.399613	 0.015706	 -0.005333	 -0.002348	 0.016752
-0.309187	 -0.936062	 -0.401960	 0.015786	 -0.005104	 -0.002249	 0.016742
-0.293401	 -0.941166	 -0.404210	 0.015862	 -0.004875	 -0.002151	 0.016733
-0.277539	 -0.946041	 -0.406361	 0.015934	 -0.004644	 -0.002052	 0.016723
-0.261606	 -0.950685	 -0.408413	 0.016001	 -0.004413	 -0.001953	 0.016713
-0.245604	 -0.955098	 -0.410366	 0.016065	 -0.004182	 -0.001853	 0.016703
-0.229540	 -0.959280	 -0.412219	 0.016125	 -0.003950	 -0.001754	 0.016694
-0.213415	 -0.963230	 -0.413973	 0.016180	 -0.003718	 -0.001654	 0.016684
-0.197235	 -0.966948	 -0.415627	 0.016232	 -0.003485	 -0.001554	 0.016674
-0.181003	 -0.970433	 -0.417181	 0.016279	 -0.003252	 -0.001454	 0.016664
-0.164724	 -0.973685	 -0.418634	 0.016323	 -0.003019	 -0.001353	 0.016655
-0.148401	 -0.976704	 -0.419988	 0.016362	 -0.002785	 -0.001253	 0.016645
-0.132039	 -0.979489	 -0.421241	 0.016398	 -0.002552	 -0.001153	 0.016635
-0.115641	 -0.982041	 -0.422394	 0.016429	 -0.002318	 -0.001052	 0.016625
-0.099212	 -0.984358	 -0.423446	 0.016457	 -0.002084	 -0.000952	 0.016616
-0.082755	 -0.986443	 -0.424397	 0.016480	 -0.001850	 -0.000851	 0.016606
-0.066275	 -0.988293	 -0.425248	 0.016500	 -0.001617	 -0.000750	 0.016596
-0.049775	 -0.989910	 -0.425999	 0.016516	 -0.001383	 -0.000650	 0.016586
-0.033259	 -0.991293	 -0.426648	 0.016527	 -0.001150	 -0.000550	 0.016576
-0.016732	 -0.992443	 -0.427198	 0.016535	 -0.000917	 -0.000449	 0.016567
-0.000197	 -0.993360	 -0.427647	 0.016539	 -0.000684	 -0.000349	 0.016557
0.016342	 -0.994044	 -0.427996	 0.016539	 -0.000452	 -0.000249	 0.016547
0.032882	 -0.994495	 -0.428246	 0.016535	 -0.000220	 -0.000149	 0.016537
0.049417	 -0.994715	 -0.428395	 0.016528	 0.000012	 -0.000050	 0.016528
0.065945	 -0.994703	 -0.428444	 0.016516	 0.000243	 0.000050	 0.016518
0.082461	 -0.994461	 -0.428394	 0.016501	 0.000473	 0.000149	 0.016508
0.098962	 -0.993988	 -0.428245	 0.016482	 0.000703	 0.000248	 0.016499
0.115444	 -0.993285	 -0.427997	 0.016459	 0.000932	 0.000347	 0.016489
0.131903	 -0.992353	 -0.427650	 0.016433	 0.001160	 0.000445	 0.016479
0.148335	 -0.991192	 -0.427205	 0.016402	 0.001388	 0.000543	 0.016470
0.164737	 -0.989804	 -0.426661	 0.016368	 0.001615	 0.000641	 0.016460
0.181106	 -0.988189	 -0.426020	 0.016331	 0.001841	 0.000739	 0.016451
0.197436	 -0.986348	 -0.425281	 0.016289	 0.002066	 0.000836	 0.016441
0.213726	 -0.984282	 -0.424446	 0.016245	 0.002290	 0.000932	 0.016432
0.229970	 -0.981992	 -0.423514	 0.016196	 0.002513	 0.001028	 0.016422
0.246167	 -0.979479	 -0.422485	 0.016144	 0.002735	 0.001124	 0.016413
0.262311	 -0.976744	 -0.421361	 0.016089	 0.002956	 0.001219	 0.016403
0.278399	 -0.973788	 -0.420141	 0.016030	 0.003176	 0.001314	 0.016394
0.294429	 -0.970613	 -0.418827	 0.015967	 0.003394	 0.001409	 0.016385
0.310396	 -0.967218	 -0.417419	 0.015901	 0.003612	 0.001502	 0.016375
0.326297	 -0.963607	 -0.415916	 0.015832	 0.003828	 0.001596	 0.016366
0.342129	 -0.959779	 -0.414321	 0.015759	 0.004043	 0.001688	 0.016357
0.357888	 -0.955736	 -0.412632	 0.015683	 0.004256	 0.001780	 0.016348
0.373571	 -0.951480	 -0.410852	 0.015604	 0.004468	 0.001872	 0.016338
0.389175	 -0.947012	 -0.408980	 0.015521	 0.004679	 0.001963	 0.016329
0.404696	 -0.942334	 -0.407017	 0.015435	 0.004888	 0.002053	 0.016320
0.420131	 -0.937446	 -0.404964	 0.015346	 0.005095	 0.002143	 0.016311
0.435477	 -0.932351	 -0.402821	 0.015254	 0.005301	 0.002232	 0.016302
0.450731	 -0.927050	 -0.400589	 0.015158	 0.005506	 0.002320	 0.016293
0.465889	 -0.921544	 -0.398269	 0.015059	 0.005709	 0.002408	 0.016284
0.480948	 -0.915835	 -0.395861	 0.014958	 0.005910	 0.002495	 0.016275
0.495906	 -0.909926	 -0.393366	 0.014853	 0.006109	 0.002581	 0.016266
0.510759	 -0.903817	 -0.390785	 0.014745	 0.006307	 0.002666	 0.016258
0.525504	 -0.897510	 -0.388119	 0.014635	 0.006503	 0.002751	 0.016249
0.540139	 -0.891007	 -0.385367	 0.014521	 0.006697	 0.002835	 0.016240
0.554659	 -0.884310	 -0.382532	 0.014404	 0.006889	 0.002918	 0.016232
0.569064	 -0.877420	 -0.379614	 0.014285	 0.007080	 0.003001	 0.016223
0.583349	 -0.870341	 -0.376613	 0.014163	 0.007268	 0.003082	 0.016214
0.597511	 -0.863072	 -0.373531	 0.014037	 0.007455	 0.003163	 0.016206
0.611549	 -0.855618	 -0.370368	 0.013910	 0.007640	 0.003243	 0.016197
0.625458	 -0.847978	 -0.367125	 0.013779	 0.007822	 0.003322	 0.016189
0.639237	 -0.840156	 -0.363803	 0.013646	 0.008003	 0.003400	 0.016181
0.652883	 -0.832153	 -0.360403	 0.013510	 0.008181	 0.003478	 0.016172
0.666393	 -0.823972	 -0.356925	 0.013372	 0.008358	 0.003554	 0.016164
0.679765	 -0.815614	 -0.353371	 0.013230	 0.008532	 0.003630	 0.016156
0.692995	 -0.807082	 -0.349742	 0.013087	 0.008705	 0.003704	 0.016148
0.706082	 -0.798377	 -0.346037	 0.012941	 0.008875	 0.003778	 0.016140
0.719023	 -0.789502	 -0.342260	 0.012792	 0.009043	 0.003851	 0.016132
0.731816	 -0.780460	 -0.338409	 0.012641	 0.009208	 0.003922	 0.016124
0.744457	 -0.771252	 -0.334486	 0.012488	 0.009372	 0.003993	 0.016116
0.756945	 -0.761880	 -0.330493	 0.012333	 0.009533	 0.004063	 0.016108
0.769278	 -0.752347	 -0.326430	 0.012175	 0.009692	 0.004132	 0.016101
0.781453	 -0.742656	 -0.322298	 0.012015	 0.009848	 0.004200	 0.016093
0.793467	 -0.732807	 -0.318098	 0.011852	 0.010003	 0.004267	 0.016085
0.805320	 -0.722805	 -0.313830	 0.011688	 0.010155	 0.004333	 0.016078
0.817007	 -0.712650	 -0.309497	 0.011521	 0.010304	 0.004398	 0.016070
0.828529	 -0.702346	 -0.305100	 0.011353	 0.010451	 0.004462	 0.016063
0.839881	 -0.691895	 -0.300638	 0.011182	 0.010596	 0.004525	 0.016056
0.851063	 -0.681299	 -0.296113	 0.011009	 0.010738	 0.004587	 0.016048
0.862072	 -0.670561	 -0.291526	 0.010834	 0.010878	 0.004647	 0.016041
0.872906	 -0.659683	 -0.286879	 0.010658	 0.011015	 0.004707	 0.016034
0.883564	 -0.648667	 -0.282172	 0.010479	 0.011150	 0.004766	 0.016027
0.894043	 -0.637517	 -0.277406	 0.010299	 0.011283	 0.004823	 0.016020
0.904342	 -0.626234	 -0.272583	 0.010117	 0.011413	 0.004880	 0.016013
0.914459	 -0.614821	 -0.267703	 0.009933	 0.011540	 0.004935	 0.016006
0.924392	 -0.603281	 -0.262768	 0.009747	 0.011665	 0.004990	 0.015999
0.934139	 -0.591617	 -0.257779	 0.009560	 0.011787	 0.005043	 0.015992
0.943699	 -0.579830	 -0.252736	 0.009371	 0.011907	 0.005095	 0.015986
0.953071	 -0.567923	 -0.247641	 0.009181	 0.012024	 0.005146	 0.015979
0.962252	 -0.555900	 -0.242495	 0.008989	 0.012138	 0.005196	 0.015973
0.971240	 -0.543762	 -0.237299	 0.008795	 0.012250	 0.005245	 0.015966
0.980036	 -0.531512	 -0.232055	 0.008600	 0.012359	 0.005292	 0.015960
0.988636	 -0.519153	 -0.226762	 0.008404	 0.012465	 0.005339	 0.015953
0.997040	 -0.506688	 -0.221424	 0.008206	 0.012569	 0.005384	 0.015947
1.005246	 -0.494119	 -0.216040	 0.008007	 0.012670	 0.005428	 0.015941
1.013253	 -0.481448	 -0.210611	 0.007807	 0.012769	 0.005471	 0.015935
1.021060	 -0.468679	 -0.205140	 0.007605	 0.012865	 0.005513	 0.015929
1.028665	 -0.455815	 -0.199627	 0.007402	 0.012958	 0.005554	 0.015923
1.036067	 -0.442857	 -0.194073	 0.007198	 0.013048	 0.005594	 0.015917
1.043266	 -0.429809	 -0.188479	 0.006993	 0.013136	 0.005632	 0.015911
1.050259	 -0.416673	 -0.182847	 0.006787	 0.013221	 0.005669	 0.015906
1.057046	 -0.403452	 -0.177178	 0.006580	 0.013303	 0.005705	 0.015900
1.063625	 -0.390149	 -0.171473	 0.006371	 0.013383	 0.005740	 0.015895
1.069997	 -0.376766	 -0.165732	 0.006162	 0.013459	 0.005774	 0.015889
1.076159	 -0.363307	 -0.159958	 0.005952	 0.013533	 0.005807	 0.015884
1.082111	 -0.349774	 -0.154152	 0.005741	 0.013605	 0.005838	 0.015878
1.087852	 -0.336169	 -0.148314	 0.005529	 0.013673	 0.005868	 0.015873
1.093381	 -0.322496	 -0.142446	 0.005316	 0.013739	 0.005897	 0.015868
1.098698	 -0.308758	 -0.136549	 0.005103	 0.013802	 0.005925	 0.015863
1.103801	 -0.294956	 -0.130624	 0.004889	 0.013862	 0.005951	 0.015858
1.108690	 -0.281094	 -0.124673	 0.004674	 0.013919	 0.005977	 0.015853
1.113364	 -0.267175	 -0.118696	 0.004459	 0.013974	 0.006001	 0.015848
1.117823	 -0.253201	 -0.112695	 0.004243	 0.014026	 0.006024	 0.015843
1.122066	 -0.239175	 -0.106670	 0.004026	 0.014075	 0.006046	 0.015839
1.126092	 -0.225101	 -0.100624	 0.003809	 0.014121	 0.006067	 0.015834
1.129901	 -0.210980	 -0.094558	 0.003592	 0.014164	 0.006086	 0.015829
1.133493	 -0.196815	 -0.088472	 0.003374	 0.014205	 0.006104	 0.015825
1.136866	 -0.182610	 -0.082367	 0.003155	 0.014243	 0.006121	 0.015821
1.140022	 -0.168367	 -0.076246	 0.002937	 0.014278	 0.006137	 0.015816
1.142958	 -0.154088	 -0.070109	 0.002718	 0.014311	 0.006152	 0.015812
1.145676	 -0.139778	 -0.063957	 0.002498	 0.014340	 0.006165	 0.015808
1.148174	 -0.125438	 -0.057792	 0.002279	 0.014367	 0.006178	 0.015804
1.150453	 -0.111071	 -0.051614	 0.002059	 0.014391	 0.006189	 0.015800
1.152512	 -0.096680	 -0.045426	 0.001839	 0.014412	 0.006198	 0.015796
1.154352	 -0.082268	 -0.039227	 0.001619	 0.014431	 0.006207	 0.015792
1.155971	 -0.067837	 -0.033020	 0.001399	 0.014446	 0.006215	 0.015788
1.157371	 -0.053391	 -0.026806	 0.001179	 0.014459	 0.006221	 0.015785
1.158550	 -0.038932	 -0.020585	 0.000959	 0.014469	 0.006226	 0.015781
1.159509	 -0.024462	 -0.014359	 0.000739	 0.014477	 0.006230	 0.015778
1.160249	 -0.009986	 -0.008129	 0.000519	 0.014481	 0.006233	 0.015774
1.160768	 0.004496	 -0.001896	 0.000300	 0.014483	 0.006234	 0.015771
1.161068	 0.018979	 0.004338	 0.000080	 0.014482	 0.006235	 0.015768
1.161148	 0.033461	 0.010572	 -0.000139	 0.014479	 0.006234	 0.015764
1.161008	 0.047940	 0.016806	 -0.000359	 0.014473	 0.006232	 0.015761
1.160650	 0.062413	 0.023038	 -0.000577	 0.014463	 0.006229	 0.015758
1.160072	 0.076876	 0.029266	 -0.000796	 0.014452	 0.006224	 0.015755
1.159276	 0.091328	 0.035491	 -0.001014	 0.014437	 0.006219	 0.015752
1.158262	 0.105765	 0.041709	 -0.001232	 0.014420	 0.006212	 0.015749
1.157030	 0.120185	 0.047921	 -0.001450	 0.014400	 0.006204	 0.015747
1.155580	 0.134585	 0.054125	 -0.001667	 0.014378	 0.006195	 0.015744
1.153913	 0.148963	 0.060321	 -0.001883	 0.014352	 0.006185	 0.015741
1.152030	 0.163316	 0.066506	 -0.002099	 0.014325	 0.006174	 0.015739
1.149932	 0.177640	 0.072679	 -0.002314	 0.014294	 0.006161	 0.015737
1.147617	 0.191934	 0.078841	 -0.002529	 0.014261	 0.006148	 0.015734
1.145088	 0.206195	 0.084989	 -0.002743	 0.014225	 0.006133	 0.015732
1.142345	 0.220420	 0.091122	 -0.002957	 0.014187	 0.006117	 0.015730
